# Pulseq sequence file
# Created by MATLAB mr toolbox

[VERSION]
major 1
minor 5
revision 1

[DEFINITIONS]
AdcRasterTime 1e-07 
BlockDurationRaster 1e-05 
FOV 0.225 0.225 0.005 
GradientRasterTime 1e-05 
Name gre_lbl 
RadiofrequencyRasterTime 1e-06 
TE 0.00345 0.0046 0.00575 0.0069 0.00805 0.0092 
TR 0.015 
TotalDuration 33.04 

# Format of blocks:
# NUM DUR RF  GX  GY  GZ  ADC  EXT
[BLOCKS]
   1   0   0   0   0   0  0  1
   2   0   0   0   0   0  0  3
   3 324   1   0   0   1  0  0
   4 100   0   2   3   4  0  0
   5   1   0   0   0   0  0  0
   6 166   0   5   0   0  1  0
   7 909   0   6   7   8  0  4
   8 324   2   0   0   1  0  0
   9 100   0   2   3   4  0  0
  10 115   0   0   0   0  0  0
  11 166   0   5   0   0  2  0
  12 795   0   6   7   8  0  4
  13 324   3   0   0   1  0  0
  14 100   0   2   3   4  0  0
  15 230   0   0   0   0  0  0
  16 166   0   5   0   0  3  0
  17 680   0   6   7   8  0  4
  18 324   4   0   0   1  0  0
  19 100   0   2   3   4  0  0
  20 346   0   0   0   0  0  0
  21 166   0   5   0   0  4  0
  22 564   0   6   7   8  0  4
  23 324   5   0   0   1  0  0
  24 100   0   2   3   4  0  0
  25 461   0   0   0   0  0  0
  26 166   0   5   0   0  5  0
  27 449   0   6   7   8  0  4
  28 324   6   0   0   1  0  0
  29 100   0   2   3   4  0  0
  30 575   0   0   0   0  0  0
  31 166   0   5   0   0  6  0
  32 335   0   6   7   8  0  6
  33 324   7   0   0   1  0  0
  34 100   0   2   9   4  0  0
  35   1   0   0   0   0  0  0
  36 166   0   5   0   0  7  0
  37 909   0   6  10   8  0  4
  38 324   8   0   0   1  0  0
  39 100   0   2   9   4  0  0
  40 115   0   0   0   0  0  0
  41 166   0   5   0   0  8  0
  42 795   0   6  10   8  0  4
  43 324   9   0   0   1  0  0
  44 100   0   2   9   4  0  0
  45 230   0   0   0   0  0  0
  46 166   0   5   0   0  9  0
  47 680   0   6  10   8  0  4
  48 324  10   0   0   1  0  0
  49 100   0   2   9   4  0  0
  50 346   0   0   0   0  0  0
  51 166   0   5   0   0 10  0
  52 564   0   6  10   8  0  4
  53 324   6   0   0   1  0  0
  54 100   0   2   9   4  0  0
  55 461   0   0   0   0  0  0
  56 166   0   5   0   0  6  0
  57 449   0   6  10   8  0  4
  58 324  11   0   0   1  0  0
  59 100   0   2   9   4  0  0
  60 575   0   0   0   0  0  0
  61 166   0   5   0   0 11  0
  62 335   0   6  10   8  0  6
  63 324  12   0   0   1  0  0
  64 100   0   2  11   4  0  0
  65   1   0   0   0   0  0  0
  66 166   0   5   0   0 12  0
  67 909   0   6  12   8  0  4
  68 324  13   0   0   1  0  0
  69 100   0   2  11   4  0  0
  70 115   0   0   0   0  0  0
  71 166   0   5   0   0 13  0
  72 795   0   6  12   8  0  4
  73 324  14   0   0   1  0  0
  74 100   0   2  11   4  0  0
  75 230   0   0   0   0  0  0
  76 166   0   5   0   0 14  0
  77 680   0   6  12   8  0  4
  78 324   1   0   0   1  0  0
  79 100   0   2  11   4  0  0
  80 346   0   0   0   0  0  0
  81 166   0   5   0   0  1  0
  82 564   0   6  12   8  0  4
  83 324  15   0   0   1  0  0
  84 100   0   2  11   4  0  0
  85 461   0   0   0   0  0  0
  86 166   0   5   0   0 15  0
  87 449   0   6  12   8  0  4
  88 324  16   0   0   1  0  0
  89 100   0   2  11   4  0  0
  90 575   0   0   0   0  0  0
  91 166   0   5   0   0 16  0
  92 335   0   6  12   8  0  6
  93 324  13   0   0   1  0  0
  94 100   0   2  13   4  0  0
  95   1   0   0   0   0  0  0
  96 166   0   5   0   0 13  0
  97 909   0   6  14   8  0  4
  98 324  17   0   0   1  0  0
  99 100   0   2  13   4  0  0
 100 115   0   0   0   0  0  0
 101 166   0   5   0   0 17  0
 102 795   0   6  14   8  0  4
 103 324   5   0   0   1  0  0
 104 100   0   2  13   4  0  0
 105 230   0   0   0   0  0  0
 106 166   0   5   0   0  5  0
 107 680   0   6  14   8  0  4
 108 324  18   0   0   1  0  0
 109 100   0   2  13   4  0  0
 110 346   0   0   0   0  0  0
 111 166   0   5   0   0 18  0
 112 564   0   6  14   8  0  4
 113 324  19   0   0   1  0  0
 114 100   0   2  13   4  0  0
 115 461   0   0   0   0  0  0
 116 166   0   5   0   0 19  0
 117 449   0   6  14   8  0  4
 118 324   9   0   0   1  0  0
 119 100   0   2  13   4  0  0
 120 575   0   0   0   0  0  0
 121 166   0   5   0   0  9  0
 122 335   0   6  14   8  0  6
 123 324  20   0   0   1  0  0
 124 100   0   2  15   4  0  0
 125   1   0   0   0   0  0  0
 126 166   0   5   0   0 20  0
 127 909   0   6  16   8  0  4
 128 324  10   0   0   1  0  0
 129 100   0   2  15   4  0  0
 130 115   0   0   0   0  0  0
 131 166   0   5   0   0 10  0
 132 795   0   6  16   8  0  4
 133 324  18   0   0   1  0  0
 134 100   0   2  15   4  0  0
 135 230   0   0   0   0  0  0
 136 166   0   5   0   0 18  0
 137 680   0   6  16   8  0  4
 138 324  21   0   0   1  0  0
 139 100   0   2  15   4  0  0
 140 346   0   0   0   0  0  0
 141 166   0   5   0   0 21  0
 142 564   0   6  16   8  0  4
 143 324   4   0   0   1  0  0
 144 100   0   2  15   4  0  0
 145 461   0   0   0   0  0  0
 146 166   0   5   0   0  4  0
 147 449   0   6  16   8  0  4
 148 324  22   0   0   1  0  0
 149 100   0   2  15   4  0  0
 150 575   0   0   0   0  0  0
 151 166   0   5   0   0 22  0
 152 335   0   6  16   8  0  6
 153 324  14   0   0   1  0  0
 154 100   0   2  17   4  0  0
 155   1   0   0   0   0  0  0
 156 166   0   5   0   0 14  0
 157 909   0   6  18   8  0  4
 158 324  15   0   0   1  0  0
 159 100   0   2  17   4  0  0
 160 115   0   0   0   0  0  0
 161 166   0   5   0   0 15  0
 162 795   0   6  18   8  0  4
 163 324  23   0   0   1  0  0
 164 100   0   2  17   4  0  0
 165 230   0   0   0   0  0  0
 166 166   0   5   0   0 23  0
 167 680   0   6  18   8  0  4
 168 324   2   0   0   1  0  0
 169 100   0   2  17   4  0  0
 170 346   0   0   0   0  0  0
 171 166   0   5   0   0  2  0
 172 564   0   6  18   8  0  4
 173 324  22   0   0   1  0  0
 174 100   0   2  17   4  0  0
 175 461   0   0   0   0  0  0
 176 166   0   5   0   0 22  0
 177 449   0   6  18   8  0  4
 178 324  17   0   0   1  0  0
 179 100   0   2  17   4  0  0
 180 575   0   0   0   0  0  0
 181 166   0   5   0   0 17  0
 182 335   0   6  18   8  0  6
 183 324  11   0   0   1  0  0
 184 100   0   2  19   4  0  0
 185   1   0   0   0   0  0  0
 186 166   0   5   0   0 11  0
 187 909   0   6  20   8  0  4
 188 324  24   0   0   1  0  0
 189 100   0   2  19   4  0  0
 190 115   0   0   0   0  0  0
 191 166   0   5   0   0 24  0
 192 795   0   6  20   8  0  4
 193 324   7   0   0   1  0  0
 194 100   0   2  19   4  0  0
 195 230   0   0   0   0  0  0
 196 166   0   5   0   0  7  0
 197 680   0   6  20   8  0  4
 198 324  20   0   0   1  0  0
 199 100   0   2  19   4  0  0
 200 346   0   0   0   0  0  0
 201 166   0   5   0   0 20  0
 202 564   0   6  20   8  0  4
 203 324  20   0   0   1  0  0
 204 100   0   2  19   4  0  0
 205 461   0   0   0   0  0  0
 206 166   0   5   0   0 20  0
 207 449   0   6  20   8  0  4
 208 324   7   0   0   1  0  0
 209 100   0   2  19   4  0  0
 210 575   0   0   0   0  0  0
 211 166   0   5   0   0  7  0
 212 335   0   6  20   8  0  6
 213 324  24   0   0   1  0  0
 214 100   0   2  21   4  0  0
 215   1   0   0   0   0  0  0
 216 166   0   5   0   0 24  0
 217 909   0   6  22   8  0  4
 218 324  11   0   0   1  0  0
 219 100   0   2  21   4  0  0
 220 115   0   0   0   0  0  0
 221 166   0   5   0   0 11  0
 222 795   0   6  22   8  0  4
 223 324  17   0   0   1  0  0
 224 100   0   2  21   4  0  0
 225 230   0   0   0   0  0  0
 226 166   0   5   0   0 17  0
 227 680   0   6  22   8  0  4
 228 324  22   0   0   1  0  0
 229 100   0   2  21   4  0  0
 230 346   0   0   0   0  0  0
 231 166   0   5   0   0 22  0
 232 564   0   6  22   8  0  4
 233 324   2   0   0   1  0  0
 234 100   0   2  21   4  0  0
 235 461   0   0   0   0  0  0
 236 166   0   5   0   0  2  0
 237 449   0   6  22   8  0  4
 238 324  23   0   0   1  0  0
 239 100   0   2  21   4  0  0
 240 575   0   0   0   0  0  0
 241 166   0   5   0   0 23  0
 242 335   0   6  22   8  0  6
 243 324  15   0   0   1  0  0
 244 100   0   2  23   4  0  0
 245   1   0   0   0   0  0  0
 246 166   0   5   0   0 15  0
 247 909   0   6  24   8  0  4
 248 324  14   0   0   1  0  0
 249 100   0   2  23   4  0  0
 250 115   0   0   0   0  0  0
 251 166   0   5   0   0 14  0
 252 795   0   6  24   8  0  4
 253 324  22   0   0   1  0  0
 254 100   0   2  23   4  0  0
 255 230   0   0   0   0  0  0
 256 166   0   5   0   0 22  0
 257 680   0   6  24   8  0  4
 258 324   4   0   0   1  0  0
 259 100   0   2  23   4  0  0
 260 346   0   0   0   0  0  0
 261 166   0   5   0   0  4  0
 262 564   0   6  24   8  0  4
 263 324  21   0   0   1  0  0
 264 100   0   2  23   4  0  0
 265 461   0   0   0   0  0  0
 266 166   0   5   0   0 21  0
 267 449   0   6  24   8  0  4
 268 324  18   0   0   1  0  0
 269 100   0   2  23   4  0  0
 270 575   0   0   0   0  0  0
 271 166   0   5   0   0 18  0
 272 335   0   6  24   8  0  6
 273 324  10   0   0   1  0  0
 274 100   0   2  25   4  0  0
 275   1   0   0   0   0  0  0
 276 166   0   5   0   0 10  0
 277 909   0   6  26   8  0  4
 278 324  20   0   0   1  0  0
 279 100   0   2  25   4  0  0
 280 115   0   0   0   0  0  0
 281 166   0   5   0   0 20  0
 282 795   0   6  26   8  0  4
 283 324   9   0   0   1  0  0
 284 100   0   2  25   4  0  0
 285 230   0   0   0   0  0  0
 286 166   0   5   0   0  9  0
 287 680   0   6  26   8  0  4
 288 324  19   0   0   1  0  0
 289 100   0   2  25   4  0  0
 290 346   0   0   0   0  0  0
 291 166   0   5   0   0 19  0
 292 564   0   6  26   8  0  4
 293 324  18   0   0   1  0  0
 294 100   0   2  25   4  0  0
 295 461   0   0   0   0  0  0
 296 166   0   5   0   0 18  0
 297 449   0   6  26   8  0  4
 298 324   5   0   0   1  0  0
 299 100   0   2  25   4  0  0
 300 575   0   0   0   0  0  0
 301 166   0   5   0   0  5  0
 302 335   0   6  26   8  0  6
 303 324  17   0   0   1  0  0
 304 100   0   2  27   4  0  0
 305   1   0   0   0   0  0  0
 306 166   0   5   0   0 17  0
 307 909   0   6  28   8  0  4
 308 324  13   0   0   1  0  0
 309 100   0   2  27   4  0  0
[RF]
1      37.2185 1 2 0 1500 120 0 0 0 0 e
2      37.2185 1 2 0 1500 120 0 0 0 2.04204 e
3      37.2185 1 2 0 1500 120 0 0 0 6.12611 e
4      37.2185 1 2 0 1500 120 0 0 0 5.96903 e
5      37.2185 1 2 0 1500 120 0 0 0 1.5708 e
6      37.2185 1 2 0 1500 120 0 0 0 5.49779 e
7      37.2185 1 2 0 1500 120 0 0 0 5.18363 e
8      37.2185 1 2 0 1500 120 0 0 0 0.628319 e
9      37.2185 1 2 0 1500 120 0 0 0 4.39823 e
10      37.2185 1 2 0 1500 120 0 0 0 3.92699 e
11      37.2185 1 2 0 1500 120 0 0 0 2.82743 e
12      37.2185 1 2 0 1500 120 0 0 0 2.19911 e
13      37.2185 1 2 0 1500 120 0 0 0 3.61283 e
14      37.2185 1 2 0 1500 120 0 0 0 0.785398 e
15      37.2185 1 2 0 1500 120 0 0 0 1.25664 e
16      37.2185 1 2 0 1500 120 0 0 0 4.55531 e
17      37.2185 1 2 0 1500 120 0 0 0 4.71239 e
18      37.2185 1 2 0 1500 120 0 0 0 0.471239 e
19      37.2185 1 2 0 1500 120 0 0 0 1.41372 e
20      37.2185 1 2 0 1500 120 0 0 0 3.14159 e
21      37.2185 1 2 0 1500 120 0 0 0 5.34071 e
22      37.2185 1 2 0 1500 120 0 0 0 2.35619 e
23      37.2185 1 2 0 1500 120 0 0 0 3.76991 e
24      37.2185 1 2 0 1500 120 0 0 0 2.98451 e

# Format of trapezoid gradients:
# id amplitude rise flat fall delay
# ..      Hz/m   us   us   us    us
[TRAP]
 1       266667 120 3000 120   0
 2      -393574 170  660 170   0
 3       334641 150  700 150   0
 4      -547368 240  520 240   0
 5       444444 190 1280 190   0
 6  1.18519e+06 510  450 510   0
 7      -334641 150  700 150   0
 8  1.17647e+06 510  170 510   0
 9       325581 140  720 140   0
10      -325581 140  720 140   0
11       320413 140  720 140   0
12      -320413 140  720 140   0
13       315245 140  720 140   0
14      -315245 140  720 140   0
15       310078 140  720 140   0
16      -310078 140  720 140   0
17       301405 130  740 130   0
18      -301405 130  740 130   0
19       296296 130  740 130   0
20      -296296 130  740 130   0
21       291188 130  740 130   0
22      -291188 130  740 130   0
23       286079 130  740 130   0
24      -286079 130  740 130   0
25       277778 120  760 120   0
26      -277778 120  760 120   0
27       272727 120  760 120   0
28      -272727 120  760 120   0
29       267677 120  760 120   0
30      -267677 120  760 120   0
31       262626 120  760 120   0
32      -262626 120  760 120   0
33       254682 110  780 110   0
34      -254682 110  780 110   0
35       249688 110  780 110   0
36      -249688 110  780 110   0
37       244694 110  780 110   0
38      -244694 110  780 110   0
39       239700 110  780 110   0
40      -239700 110  780 110   0
41       232099 100  800 100   0
42      -232099 100  800 100   0
43       227160 100  800 100   0
44      -227160 100  800 100   0
45       222222 100  800 100   0
46      -222222 100  800 100   0
47       217284 100  800 100   0
48      -217284 100  800 100   0
49       210012  90  820  90   0
50      -210012  90  820  90   0
51       205128  90  820  90   0
52      -205128  90  820  90   0
53       200244  90  820  90   0
54      -200244  90  820  90   0
55       195360  90  820  90   0
56      -195360  90  820  90   0
57       190476  90  820  90   0
58      -190476  90  820  90   0
59       183575  80  840  80   0
60      -183575  80  840  80   0
61       178744  80  840  80   0
62      -178744  80  840  80   0
63       173913  80  840  80   0
64      -173913  80  840  80   0
65       169082  80  840  80   0
66      -169082  80  840  80   0
67       162485  70  860  70   0
68      -162485  70  860  70   0
69       157706  70  860  70   0
70      -157706  70  860  70   0
71       152927  70  860  70   0
72      -152927  70  860  70   0
73       148148  70  860  70   0
74      -148148  70  860  70   0
75       143369  70  860  70   0
76      -143369  70  860  70   0
77       137116  60  880  60   0
78      -137116  60  880  60   0
79       132388  60  880  60   0
80      -132388  60  880  60   0
81       127660  60  880  60   0
82      -127660  60  880  60   0
83       122931  60  880  60   0
84      -122931  60  880  60   0
85       116959  50  900  50   0
86      -116959  50  900  50   0
87       112281  50  900  50   0
88      -112281  50  900  50   0
89       107602  50  900  50   0
90      -107602  50  900  50   0
91       102924  50  900  50   0
92      -102924  50  900  50   0
93      98245.6  50  900  50   0
94     -98245.6  50  900  50   0
95      92592.6  40  920  40   0
96     -92592.6  40  920  40   0
97        87963  40  920  40   0
98       -87963  40  920  40   0
99      83333.3  40  920  40   0
100     -83333.3  40  920  40   0
101      78703.7  40  920  40   0
102     -78703.7  40  920  40   0
103      74074.1  40  920  40   0
104     -74074.1  40  920  40   0
105      68728.5  30  940  30   0
106     -68728.5  30  940  30   0
107      64146.6  30  940  30   0
108     -64146.6  30  940  30   0
109      59564.7  30  940  30   0
110     -59564.7  30  940  30   0
111      54982.8  30  940  30   0
112     -54982.8  30  940  30   0
113      50400.9  30  940  30   0
114     -50400.9  30  940  30   0
115      45351.5  20  960  20   0
116     -45351.5  20  960  20   0
117      40816.3  20  960  20   0
118     -40816.3  20  960  20   0
119      36281.2  20  960  20   0
120     -36281.2  20  960  20   0
121        31746  20  960  20   0
122       -31746  20  960  20   0
123      27210.9  20  960  20   0
124     -27210.9  20  960  20   0
125      22446.7  10  980  10   0
126     -22446.7  10  980  10   0
127      17957.4  10  980  10   0
128     -17957.4  10  980  10   0
129        13468  10  980  10   0
130       -13468  10  980  10   0
131      8978.68  10  980  10   0
132     -8978.68  10  980  10   0
133      4489.34  10  980  10   0
134     -4489.34  10  980  10   0
135           -0  10  980  10   0
136            0  10  980  10   0

# Format of ADC events:
# id num dwell delay freqPPM phasePPM freq phase phase_id
# ..  ..    ns    us     ppm  rad/MHz   Hz   rad       ..
[ADC]
1 128 10000 190 0 0 0 0 0
2 128 10000 190 0 0 0 2.04204 0
3 128 10000 190 0 0 0 6.12611 0
4 128 10000 190 0 0 0 5.96903 0
5 128 10000 190 0 0 0 1.5708 0
6 128 10000 190 0 0 0 5.49779 0
7 128 10000 190 0 0 0 5.18363 0
8 128 10000 190 0 0 0 0.628319 0
9 128 10000 190 0 0 0 4.39823 0
10 128 10000 190 0 0 0 3.92699 0
11 128 10000 190 0 0 0 2.82743 0
12 128 10000 190 0 0 0 2.19911 0
13 128 10000 190 0 0 0 3.61283 0
14 128 10000 190 0 0 0 0.785398 0
15 128 10000 190 0 0 0 1.25664 0
16 128 10000 190 0 0 0 4.55531 0
17 128 10000 190 0 0 0 4.71239 0
18 128 10000 190 0 0 0 0.471239 0
19 128 10000 190 0 0 0 1.41372 0
20 128 10000 190 0 0 0 3.14159 0
21 128 10000 190 0 0 0 5.34071 0
22 128 10000 190 0 0 0 2.35619 0
23 128 10000 190 0 0 0 3.76991 0
24 128 10000 190 0 0 0 2.98451 0

# Format of extension lists:
# id type ref next_id
# next_id of 0 terminates the list
# Extension list is followed by extension specifications
[EXTENSIONS]
1 1 1 0
2 1 2 0
3 1 3 2
4 3 1 0
5 3 2 0
6 1 4 5
7 3 3 2
8 1 4 7
9 3 4 0

# Extension specification for setting labels:
# id set labelstring
extension LABELSET 1
1 1 REV
2 0 LIN
3 0 SLC
4 0 ECO

# Extension specification for increasing labels:
# id inc labelstring
extension LABELINC 3
1 1 ECO
2 1 LIN
3 1 SLC
4 1 REP

# Sequence Shapes
[SHAPES]

shape_id 1
num_samples 3000
5.33512061e-05
0.000160161335
0.000267116839
0.000374219827
0.000481472412
0.000588876712
0.00069643485
0.000804148955
0.000912021157
0.00102005359
0.0011282484
0.00123660773
0.00134513373
0.00145382854
0.00156269432
0.00167173322
0.00178094741
0.00189033905
0.0019999103
0.00210966333
0.00221960031
0.00232972341
0.00244003479
0.00255053664
0.00266123112
0.00277212042
0.0028832067
0.00299449215
0.00310597893
0.00321766924
0.00332956523
0.0034416691
0.00355398301
0.00366650915
0.00377924967
0.00389220677
0.0040053826
0.00411877934
0.00423239915
0.00434624421
0.00446031667
0.0045746187
0.00468915245
0.00480392009
0.00491892375
0.0050341656
0.00514964778
0.00526537242
0.00538134167
0.00549755767
0.00561402253
0.00573073839
0.00584770736
0.00596493156
0.0060824131
0.00620015408
0.0063181566
0.00643642275
0.00655495462
0.00667375429
0.00679282382
0.0069121653
0.00703178077
0.00715167228
0.00727184189
0.00739229163
0.00751302352
0.00763403959
0.00775534184
0.00787693229
0.00799881293
0.00812098573
0.00824345268
0.00836621575
0.00848927689
0.00861263804
0.00873630115
0.00886026813
0.00898454092
0.0091091214
0.00923401147
0.00935921303
0.00948472792
0.00961055802
0.00973670518
0.00986317122
0.00998995796
0.0101170672
0.0102445008
0.0103722605
0.010500348
0.0106287652
0.0107575137
0.0108865953
0.0110160118
0.0111457647
0.0112758559
0.0114062868
0.0115370594
0.011668175
0.0117996355
0.0119314423
0.0120635972
0.0121961015
0.012328957
0.0124621652
0.0125957275
0.0127296456
0.0128639208
0.0129985546
0.0131335486
0.0132689041
0.0134046226
0.0135407055
0.013677154
0.0138139698
0.0139511539
0.0140887078
0.0142266329
0.0143649302
0.0145036012
0.0146426471
0.0147820691
0.0149218683
0.0150620461
0.0152026035
0.0153435416
0.0154848617
0.0156265647
0.0157686518
0.015911124
0.0160539824
0.0161972279
0.0163408615
0.0164848842
0.016629297
0.0167741007
0.0169192962
0.0170648843
0.0172108661
0.0173572421
0.0175040133
0.0176511804
0.0177987441
0.0179467052
0.0180950644
0.0182438222
0.0183929794
0.0185425366
0.0186924943
0.0188428531
0.0189936136
0.0191447761
0.0192963414
0.0194483097
0.0196006814
0.0197534571
0.019906637
0.0200602216
0.020214211
0.0203686056
0.0205234057
0.0206786114
0.020834223
0.0209902406
0.0211466644
0.0213034945
0.0214607308
0.0216183736
0.0217764228
0.0219348784
0.0220937403
0.0222530084
0.0224126827
0.0225727631
0.0227332492
0.022894141
0.0230554382
0.0232171406
0.0233792478
0.0235417594
0.0237046752
0.0238679948
0.0240317176
0.0241958433
0.0243603714
0.0245253012
0.0246906323
0.0248563641
0.0250224958
0.0251890269
0.0253559566
0.0255232843
0.025691009
0.0258591301
0.0260276467
0.0261965579
0.0263658627
0.0265355603
0.0267056496
0.0268761297
0.0270469995
0.0272182578
0.0273899036
0.0275619356
0.0277343527
0.0279071537
0.0280803372
0.028253902
0.0284278466
0.0286021697
0.0287768699
0.0289519457
0.0291273956
0.029303218
0.0294794114
0.0296559741
0.0298329045
0.0300102009
0.0301878615
0.0303658846
0.0305442683
0.0307230109
0.0309021103
0.0310815647
0.0312613721
0.0314415304
0.0316220377
0.0318028918
0.0319840905
0.0321656318
0.0323475134
0.032529733
0.0327122883
0.032895177
0.0330783967
0.033261945
0.0334458194
0.0336300174
0.0338145364
0.033999374
0.0341845274
0.0343699939
0.0345557709
0.0347418555
0.0349282451
0.0351149367
0.0353019274
0.0354892144
0.0356767946
0.035864665
0.0360528226
0.0362412643
0.036429987
0.0366189873
0.0368082622
0.0369978083
0.0371876223
0.0373777009
0.0375680406
0.037758638
0.0379494896
0.0381405919
0.0383319412
0.038523534
0.0387153666
0.0389074352
0.0390997361
0.0392922655
0.0394850196
0.0396779943
0.0398711859
0.0400645904
0.0402582036
0.0404520215
0.04064604
0.0408402549
0.0410346621
0.0412292572
0.041424036
0.0416189941
0.0418141271
0.0420094306
0.0422049002
0.0424005311
0.042596319
0.0427922591
0.0429883469
0.0431845775
0.0433809463
0.0435774484
0.043774079
0.0439708332
0.044167706
0.0443646925
0.0445617876
0.0447589862
0.0449562833
0.0451536736
0.0453511519
0.0455487129
0.0457463514
0.045944062
0.0461418393
0.0463396777
0.0465375719
0.0467355163
0.0469335053
0.0471315333
0.0473295945
0.0475276832
0.0477257938
0.0479239202
0.0481220568
0.0483201975
0.0485183364
0.0487164674
0.0489145847
0.0491126819
0.0493107531
0.0495087919
0.0497067922
0.0499047476
0.0501026519
0.0503004986
0.0504982813
0.0506959936
0.0508936289
0.0510911807
0.0512886424
0.0514860072
0.0516832685
0.0518804196
0.0520774536
0.0522743638
0.0524711431
0.0526677847
0.0528642817
0.0530606269
0.0532568133
0.0534528338
0.0536486812
0.0538443484
0.054039828
0.0542351127
0.0544301953
0.0546250683
0.0548197242
0.0550141557
0.0552083552
0.055402315
0.0555960276
0.0557894854
0.0559826805
0.0561756053
0.056368252
0.0565606126
0.0567526794
0.0569444444
0.0571358996
0.057327037
0.0575178486
0.0577083261
0.0578984615
0.0580882466
0.058277673
0.0584667326
0.0586554171
0.0588437179
0.0590316268
0.0592191352
0.0594062346
0.0595929165
0.0597791724
0.0599649935
0.0601503711
0.0603352967
0.0605197613
0.0607037563
0.0608872727
0.0610703017
0.0612528342
0.0614348615
0.0616163743
0.0617973638
0.0619778207
0.0621577359
0.0623371003
0.0625159045
0.0626941395
0.0628717957
0.063048864
0.0632253349
0.0634011989
0.0635764466
0.0637510686
0.0639250551
0.0640983967
0.0642710837
0.0644431065
0.0646144553
0.0647851204
0.0649550919
0.0651243601
0.0652929152
0.0654607471
0.0656278459
0.0657942017
0.0659598045
0.0661246441
0.0662887106
0.0664519936
0.0666144832
0.066776169
0.0669370408
0.0670970884
0.0672563014
0.0674146694
0.0675721821
0.0677288291
0.0678845998
0.0680394838
0.0681934705
0.0683465494
0.0684987098
0.0686499411
0.0688002327
0.0689495738
0.0690979537
0.0692453615
0.0693917866
0.0695372179
0.0696816448
0.0698250561
0.0699674411
0.0701087887
0.0702490879
0.0703883276
0.0705264968
0.0706635844
0.0707995792
0.07093447
0.0710682457
0.071200895
0.0713324067
0.0714627694
0.0715919719
0.0717200028
0.0718468506
0.071972504
0.0720969516
0.0722201818
0.0723421832
0.0724629442
0.0725824532
0.0727006988
0.0728176692
0.0729333529
0.0730477381
0.0731608132
0.0732725665
0.0733829861
0.0734920604
0.0735997774
0.0737061255
0.0738110928
0.0739146673
0.0740168372
0.0741175905
0.0742169153
0.0743147997
0.0744112315
0.0745061989
0.0745996898
0.074691692
0.0747821936
0.0748711824
0.0749586462
0.075044573
0.0751289505
0.0752117665
0.0752930089
0.0753726654
0.0754507237
0.0755271716
0.0756019967
0.0756751868
0.0757467295
0.0758166125
0.0758848234
0.0759513498
0.0760161793
0.0760792995
0.0761406979
0.076200362
0.0762582795
0.0763144379
0.0763688245
0.0764214269
0.0764722326
0.076521229
0.0765684036
0.0766137437
0.0766572368
0.0766988703
0.0767386316
0.0767765079
0.0768124868
0.0768465554
0.0768787013
0.0769089116
0.0769371737
0.076963475
0.0769878026
0.0770101438
0.077030486
0.0770488165
0.0770651223
0.0770793909
0.0770916094
0.077101765
0.0771098451
0.0771158367
0.0771197271
0.0771215035
0.0771211531
0.0771186631
0.0771140207
0.077107213
0.0770982273
0.0770870506
0.0770736701
0.0770580731
0.0770402467
0.0770201779
0.0769978541
0.0769732623
0.0769463896
0.0769172233
0.0768857505
0.0768519583
0.0768158339
0.0767773643
0.0767365369
0.0766933386
0.0766477567
0.0765997784
0.0765493907
0.0764965808
0.0764413358
0.0763836431
0.0763234896
0.0762608626
0.0761957493
0.0761281368
0.0760580122
0.0759853629
0.075910176
0.0758324387
0.0757521382
0.0756692617
0.0755837964
0.0754957297
0.0754050486
0.0753117405
0.0752157926
0.0751171921
0.0750159265
0.0749119829
0.0748053486
0.0746960109
0.0745839573
0.0744691749
0.0743516512
0.0742313734
0.074108329
0.0739825054
0.0738538899
0.07372247
0.073588233
0.0734511665
0.0733112578
0.0731684945
0.0730228641
0.0728743539
0.0727229516
0.0725686447
0.0724114208
0.0722512674
0.0720881722
0.0719221226
0.0717531065
0.0715811113
0.0714061249
0.0712281348
0.0710471289
0.0708630948
0.0706760203
0.0704858932
0.0702927013
0.0700964323
0.0698970743
0.069694615
0.0694890423
0.0692803441
0.0690685085
0.0688535234
0.0686353768
0.0684140566
0.0681895511
0.0679618482
0.067730936
0.0674968028
0.0672594366
0.0670188257
0.0667749582
0.0665278225
0.0662774069
0.0660236995
0.0657666889
0.0655063633
0.0652427112
0.0649757211
0.0647053813
0.0644316804
0.064154607
0.0638741496
0.0635902969
0.0633030374
0.0630123599
0.062718253
0.0624207056
0.0621197064
0.0618152443
0.061507308
0.0611958866
0.0608809689
0.060562544
0.0602406008
0.0599151284
0.0595861158
0.0592535524
0.0589174271
0.0585777293
0.0582344481
0.0578875729
0.0575370931
0.057182998
0.056825277
0.0564639196
0.0560989154
0.0557302539
0.0553579247
0.0549819174
0.0546022218
0.0542188276
0.0538317245
0.0534409025
0.0530463514
0.0526480611
0.0522460216
0.0518402229
0.0514306552
0.0510173085
0.050600173
0.0501792389
0.0497544965
0.0493259362
0.0488935483
0.0484573232
0.0480172514
0.0475733235
0.0471255301
0.0466738617
0.046218309
0.0457588629
0.0452955141
0.0448282535
0.044357072
0.0438819605
0.04340291
0.0429199118
0.0424329568
0.0419420363
0.0414471415
0.0409482637
0.0404453944
0.0399385249
0.0394276467
0.0389127514
0.0383938305
0.0378708757
0.0373438788
0.0368128315
0.0362777257
0.0357385533
0.0351953062
0.0346479766
0.0340965564
0.0335410379
0.0329814132
0.0324176747
0.0318498147
0.0312778257
0.0307017
0.0301214303
0.0295370092
0.0289484293
0.0283556834
0.0277587643
0.0271576649
0.0265523781
0.0259428969
0.0253292145
0.024711324
0.0240892186
0.0234628916
0.0228323363
0.0221975462
0.0215585148
0.0209152357
0.0202677025
0.0196159089
0.0189598487
0.0182995158
0.0176349041
0.0169660075
0.0162928203
0.0156153365
0.0149335504
0.0142474563
0.0135570485
0.0128623215
0.0121632698
0.011459888
0.0107521708
0.010040113
0.00932370935
0.0086029548
0.00787784432
0.00714837297
0.00641453591
0.00567632833
0.00493374555
0.00418678294
0.00343543595
0.00267970012
0.00191957106
0.00115504448
0.00038611613
0.000387218116
0.00116496233
0.00194712048
0.00273369648
0.00352469414
0.0043201172
0.00511996931
0.00592425405
0.00673297489
0.00754613524
0.00836373842
0.00918578767
0.0100122861
0.0108432369
0.0116786429
0.0125185071
0.0133628323
0.0142116211
0.0150648763
0.0159226004
0.0167847959
0.0176514651
0.0185226103
0.0193982338
0.0202783376
0.0211629238
0.0220519944
0.0229455511
0.0238435958
0.0247461301
0.0256531556
0.0265646738
0.0274806861
0.0284011939
0.0293261983
0.0302557006
0.0311897016
0.0321282025
0.033071204
0.034018707
0.0349707121
0.0359272199
0.036888231
0.0378537456
0.0388237642
0.0397982869
0.0407773139
0.0417608452
0.0427488808
0.0437414205
0.044738464
0.045740011
0.0467460612
0.0477566139
0.0487716685
0.0497912243
0.0508152805
0.0518438363
0.0528768905
0.0539144421
0.0549564899
0.0560030326
0.0570540688
0.0581095971
0.0591696158
0.0602341233
0.0613031178
0.0623765975
0.0634545603
0.0645370042
0.0656239271
0.0667153267
0.0678112006
0.0689115463
0.0700163614
0.0711256432
0.0722393889
0.0733575956
0.0744802605
0.0756073804
0.0767389523
0.0778749729
0.0790154388
0.0801603466
0.0813096928
0.0824634736
0.0836216855
0.0847843245
0.0859513867
0.087122868
0.0882987643
0.0894790714
0.0906637849
0.0918529004
0.0930464133
0.094244319
0.0954466127
0.0966532896
0.0978643447
0.0990797731
0.100299569
0.101523729
0.102752245
0.103985114
0.105222329
0.106463884
0.107709775
0.108959995
0.110214538
0.111473398
0.112736569
0.114004045
0.115275819
0.116551885
0.117832236
0.119116866
0.120405767
0.121698933
0.122996357
0.124298032
0.125603951
0.126914106
0.12822849
0.129547095
0.130869914
0.132196939
0.133528163
0.134863577
0.136203173
0.137546943
0.13889488
0.140246974
0.141603218
0.142963602
0.144328118
0.145696758
0.147069513
0.148446373
0.149827329
0.151212373
0.152601495
0.153994686
0.155391937
0.156793237
0.158198577
0.159607948
0.161021339
0.162438741
0.163860143
0.165285535
0.166714908
0.16814825
0.169585552
0.171026802
0.17247199
0.173921105
0.175374136
0.176831072
0.178291903
0.179756617
0.181225202
0.182697648
0.184173942
0.185654073
0.18713803
0.188625801
0.190117373
0.191612735
0.193111874
0.194614779
0.196121437
0.197631836
0.199145963
0.200663805
0.202185351
0.203710586
0.205239498
0.206772075
0.208308302
0.209848167
0.211391657
0.212938757
0.214489455
0.216043737
0.217601589
0.219162997
0.220727948
0.222296427
0.223868421
0.225443915
0.227022894
0.228605345
0.230191252
0.231780602
0.23337338
0.23496957
0.236569158
0.238172129
0.239778468
0.241388159
0.243001188
0.244617538
0.246237195
0.247860143
0.249486366
0.251115848
0.252748574
0.254384528
0.256023693
0.257666054
0.259311593
0.260960296
0.262612145
0.264267124
0.265925216
0.267586404
0.269250673
0.270918004
0.272588381
0.274261786
0.275938203
0.277617615
0.279300003
0.280985351
0.282673641
0.284364855
0.286058975
0.287755984
0.289455865
0.291158597
0.292864165
0.294572549
0.296283731
0.297997693
0.299714417
0.301433884
0.303156074
0.304880971
0.306608554
0.308338805
0.310071705
0.311807234
